# f(Hz),1.0,2.0,3.0,4.0,5.0
2.441406250000000000e-04,8.977590143164995595e+01,1.014194751094349840e+02,1.089398136373508947e+02,1.146264752764853512e+02,1.192528439341918727e+02
4.882812500000000000e-04,8.956328188944581825e+01,1.012440211581986773e+02,1.088130388707277092e+02,1.145540791806224803e+02,1.192384705567588128e+02
7.324218750000000000e-04,8.934641420584566163e+01,1.010626742699400893e+02,1.086789939910485572e+02,1.144731986381706719e+02,1.192145233952334138e+02
9.765625000000000000e-04,8.912533456493370920e+01,1.008754709576667210e+02,1.085377109324328870e+02,1.143838574392976994e+02,1.191810151387723096e+02
1.220703125000000000e-03,8.890008084924470211e+01,1.006824502119471987e+02,1.083892249196941862e+02,1.142860835240634430e+02,1.191379635279510865e+02
1.464843750000000000e-03,8.867069261151426929e+01,1.004836534694022134e+02,1.082335744364329457e+02,1.141799089528913100e+02,1.190853913305955700e+02
1.708984375000000000e-03,8.843721104458143145e+01,1.002791245784489575e+02,1.080708011892883320e+02,1.140653698718555233e+02,1.190233263108151363e+02
1.953125000000000000e-03,8.819967894949715514e+01,1.000689097623600787e+02,1.079009500684182967e+02,1.139425064728605719e+02,1.189518011913170596e+02
2.197265625000000000e-03,8.795814070189597089e+01,9.985305757970779439e+01,1.077240691042884322e+02,1.138113629488014595e+02,1.188708536090991146e+02
2.441406250000000000e-03,8.771264221669100891e+01,9.963161888226598251e+01,1.075402094208560300e+02,1.136719874438058184e+02,1.187805260646334489e+02
2.685546874999999566e-03,8.746323091115793602e+01,9.940464677045095243e+01,1.073494251852449537e+02,1.135244319986687316e+02,1.186808658646711336e+02
2.929687500000000000e-03,8.720995566647444264e+01,9.917219654638491022e+01,1.071517735540140848e+02,1.133687524916044111e+02,1.185719250588123970e+02
3.173828125000000434e-03,8.695286678778681733e+01,9.893432566467255640e+01,1.069473146161290629e+02,1.132050085744465804e+02,1.184537603700032520e+02
3.417968750000000434e-03,8.669201596287661005e+01,9.869109368098376933e+01,1.067361113327537652e+02,1.130332636044420980e+02,1.183264331191318632e+02
3.662109374999999566e-03,8.642745621950415114e+01,9.844256219854166545e+01,1.065182294739852580e+02,1.128535845717899093e+02,1.181900091439137555e+02
3.906250000000000000e-03,8.615924188150711416e+01,9.818879481261767239e+01,1.062937375526607724e+02,1.126660420230871011e+02,1.180445587122665785e+02
4.150390625000000000e-03,8.588742852373474079e+01,9.792985705313931533e+01,1.060627067553711953e+02,1.124707099808520212e+02,1.178901564303872505e+02
4.394531250000000867e-03,8.561207292590083284e+01,9.766581632551978487e+01,1.058252108708213513e+02,1.122676658593025962e+02,1.177268811457567210e+02
4.638671875000000000e-03,8.533323302543840327e+01,9.739674184982067118e+01,1.055813262156802921e+02,1.120569903765737081e+02,1.175548158453060665e+02
4.882812500000000000e-03,8.505096786944285725e+01,9.712270459836271641e+01,1.053311315580713767e+02,1.118387674635660431e+02,1.173740475489896227e+02
5.126953125000000000e-03,8.476533756578899670e+01,9.684377723190014819e+01,1.050747080388528474e+02,1.116130841696220699e+02,1.171846671990168858e+02
5.371093750000000867e-03,8.447640323350954361e+01,9.656003403447725475e+01,1.048121390908449229e+02,1.113800305652320759e+02,1.169867695450044067e+02
5.615234375000000000e-03,8.418422695252291987e+01,9.627155084708631705e+01,1.045435103561604535e+02,1.111396996419758807e+02,1.167804530253142588e+02
5.859375000000000000e-03,8.388887171279833410e+01,9.597840500024791766e+01,1.042689096018006296e+02,1.108921872099113415e+02,1.165658196448532209e+02
6.103515625000000000e-03,8.359040136304597013e+01,9.568067524563412007e+01,1.039884266336750898e+02,1.106375917926209524e+02,1.163429748496083391e+02
6.347656250000000867e-03,8.328888055902014287e+01,9.537844168685678881e+01,1.037021532092111187e+02,1.103760145201335661e+02,1.161120273982015192e+02
6.591796875000000867e-03,8.298437471152308831e+01,9.507178570954191343e+01,1.034101829487145210e+02,1.101075590199369145e+02,1.158730892307471692e+02
6.835937500000000000e-03,8.267694993419489435e+01,9.476078991081135428e+01,1.031126112456456951e+02,1.098323313062989683e+02,1.156262753352973220e+02
7.080078125000000000e-03,8.236667299117644347e+01,9.444553802829253186e+01,1.028095351759745171e+02,1.095504396681163968e+02,1.153717036121626336e+02
7.324218750000000867e-03,8.205361124472830170e+01,9.412611486877455036e+01,1.025010534067761085e+02,1.092619945555071013e+02,1.151094947363940975e+02
7.568359375000000000e-03,8.173783260288988117e+01,9.380260623663023978e+01,1.021872661042294084e+02,1.089671084653639355e+02,1.148397720187120257e+02
7.812500000000000000e-03,8.141940546725902550e+01,9.347509886211861385e+01,1.018682748411772820e+02,1.086658958260833145e+02,1.145626612651649907e+02
8.056640625000000000e-03,8.109839868097208182e+01,9.314368032968373257e+01,1.015441825044068764e+02,1.083584728816825162e+02,1.142782906358000190e+02
8.300781250000000000e-03,8.077488147696189458e+01,9.280843900636079979e+01,1.012150932018038958e+02,1.080449575755136209e+02,1.139867905026206358e+02
8.544921875000000000e-03,8.044892342656895323e+01,9.246946397040008492e+01,1.008811121695344468e+02,1.077254694337815693e+02,1.136882933071061643e+02
8.789062500000000000e-03,8.012059438857878035e+01,9.212684494021496562e+01,1.005423456794022741e+02,1.074001294490673075e+02,1.133829334175587604e+02
9.033203125000000000e-03,7.978996445875581855e+01,9.178067220375815793e+01,1.001989009465273455e+02,1.070690599640542473e+02,1.130708469865411985e+02
9.277343750000000000e-03,7.945710391994204258e+01,9.143103654842705907e+01,9.985088603748734215e+01,1.067323845556505830e+02,1.127521718086595683e+02
9.521484375000000000e-03,7.912208319278541069e+01,9.107802919159533417e+01,9.949840977905924433e+01,1.063902279196946523e+02,1.124270471789399153e+02
9.765625000000000000e-03,7.878497278716017149e+01,9.072174171186463809e+01,9.914158166769362879e+01,1.060427157564247835e+02,1.120956137520382043e+02
1.000976562500000000e-02,7.844584325433871186e+01,9.036226598112662600e+01,9.878051177985034315e+01,1.056899746568891487e+02,1.117580134025167098e+02
1.025390624999999827e-02,7.810476513997147663e+01,8.999969409752139882e+01,9.841531068331838128e+01,1.053321319904642195e+02,1.114143890864100257e+02
1.049804687500000000e-02,7.776180893792773929e+01,8.963411831937465024e+01,9.804608934963813738e+01,1.049693157936444123e+02,1.110648847042949683e+02
1.074218749999999827e-02,7.741704504504768636e+01,8.926563100019168928e+01,9.767295906773880176e+01,1.046016546602567558e+02,1.107096449660692485e+02
1.098632812499999827e-02,7.707054371685303806e+01,8.889432452478234836e+01,9.729603135889819043e+01,1.042292776332499642e+02,1.103488152576345271e+02
1.123046875000000000e-02,7.672237502425940647e+01,8.852029124658638182e+01,9.691541789312644539e+01,1.038523140981963024e+02,1.099825415096681240e+02
1.147460937499999827e-02,7.637260881133136081e+01,8.814362342626495206e+01,9.653123040706999802e+01,1.034708936786402660e+02,1.096109700686585882e+02
1.171875000000000000e-02,7.602131465411706301e+01,8.776441317161894062e+01,9.614358062352530965e+01,1.030851461334177941e+02,1.092342475703690496e+02
1.196289062500000000e-02,7.566856182059720481e+01,8.738275237889121172e+01,9.575258017264756916e+01,1.026952012560632710e+02,1.088525208158823432e+02
1.220703124999999827e-02,7.531441923177828812e+01,8.699873267550464107e+01,9.535834051493158370e+01,1.023011887764134542e+02,1.084659366503698124e+02
1.245117187500000000e-02,7.495895542395814459e+01,8.661244536428411323e+01,9.496097286603836096e+01,1.019032382645081327e+02,1.080746418447166661e+02
1.269531249999999827e-02,7.460223851218881919e+01,8.622398136920617162e+01,9.456058812353369092e+01,1.015014790368818467e+02,1.076787829801253764e+02
1.293945312500000000e-02,7.424433615495695449e+01,8.583343118271508843e+01,9.415729679559885312e+01,1.010960400653302855e+02,1.072785063358061990e+02
1.318359375000000000e-02,7.388531552010097414e+01,8.544088481464075358e+01,9.375120893176902825e+01,1.006870498882287137e+02,1.068739577798564682e+02
1.342773437499999827e-02,7.352524325198005783e+01,8.504643174274906414e+01,9.334243405574815711e+01,1.002746365244716316e+02,1.064652826634167013e+02
1.367187500000000000e-02,7.316418543990701551e+01,8.465016086495117520e+01,9.293108110034340541e+01,9.985892739009442209e+01,1.060526257181830516e+02
1.391601562500000000e-02,7.280220758785490887e+01,8.425216045319446323e+01,9.251725834455723430e+01,9.944004921763111327e+01,1.056361309573442071e+02
1.416015624999999827e-02,7.243937458544395724e+01,8.385251810905333514e+01,9.210107335286910768e+01,9.901812797825354551e+01,1.052159415800017541e+02
1.440429687500000000e-02,7.207575068021290576e+01,8.345132072103535847e+01,9.168263291673376614e+01,9.859328880673162132e+01,1.047921998791229186e+02
1.464843749999999827e-02,7.171139945117604952e+01,8.304865442361260364e+01,9.126204299831748301e+01,9.816565592924506234e+01,1.043650471530642108e+02
1.489257812499999827e-02,7.134638378366508960e+01,8.264460455798644034e+01,9.083940867648874473e+01,9.773535259407198339e+01,1.039346236206966978e+02
1.513671875000000000e-02,7.098076584545238177e+01,8.223925563458881527e+01,9.041483409507506508e+01,9.730250100517159240e+01,1.035010683401535232e+02
1.538085937499999827e-02,7.061460706414938215e+01,8.183269129732089198e+01,8.998842241339200143e+01,9.686722225867217162e+01,1.030645191312118101e+02
1.562500000000000000e-02,7.024796810587309892e+01,8.142499428952589824e+01,8.956027575904731464e+01,9.642963628226938511e+01,1.026251125013138079e+02
1.586914062500000000e-02,6.988090885516969308e+01,8.101624642169001334e+01,8.913049518301683349e+01,9.598986177753343441e+01,1.021829835752219822e+02
1.611328125000000000e-02,6.951348839618376019e+01,8.060652854086254138e+01,8.869918061698624001e+01,9.554801616511815610e+01,1.017382660282977156e+02
1.635742187500000000e-02,6.914576499505923834e+01,8.019592050178351883e+01,8.826643083294717940e+01,9.510421553285924290e+01,1.012910920233839533e+02
1.660156250000000000e-02,6.877779608355643859e+01,7.978450113970362167e+01,8.783234340503398130e+01,9.465857458674368274e+01,1.008415921512665392e+02
1.684570312500000000e-02,6.840963824386754766e+01,7.937234824488034235e+01,8.739701467358179343e+01,9.421120660472772101e+01,1.003898953746817568e+02
1.708984375000000000e-02,6.804134719461238490e+01,7.895953853872946127e+01,8.696053971138476868e+01,9.376222339337498113e+01,9.993612897583152233e+01
1.733398437500000000e-02,6.767297777799363701e+01,7.854614765161139189e+01,8.652301229212898193e+01,9.331173524728332325e+01,9.948041850736261438e+01
1.757812500000000000e-02,6.730458394809056699e+01,7.813225010222762990e+01,8.608452486097236545e+01,9.285985091126345026e+01,9.902288774676021887e+01
1.782226562500000000e-02,6.693621876026799100e+01,7.771791927860185467e+01,8.564516850723970265e+01,9.240667754522914379e+01,9.856365865410110416e+01
1.806640625000000000e-02,6.656793436167708933e+01,7.730322742061771635e+01,8.520503293919971100e+01,9.195232069175519030e+01,9.810285133310783579e+01
1.831054687500000000e-02,6.619978198282288417e+01,7.688824560408433229e+01,8.476420646088763533e+01,9.149688424625547611e+01,9.764058399544022393e+01
1.855468750000000000e-02,6.583181193017320254e+01,7.647304372629812974e+01,8.432277595093448497e+01,9.104047042973122927e+01,9.717697292815741150e+01
1.879882812499999653e-02,6.546407357978193886e+01,7.605769049306933027e+01,8.388082684336316674e+01,9.058317976403553473e+01,9.671213246427964805e+01
1.904296875000000000e-02,6.509661537190012837e+01,7.564225340717888457e+01,8.343844311030758831e+01,9.012511104959864383e+01,9.624617495637563991e+01
1.928710937500000000e-02,6.472948480654666525e+01,7.522679875823190798e+01,8.299570724661180066e+01,8.966636134555594140e+01,9.577921075309971854e+01
1.953125000000000000e-02,6.436272844001027238e+01,7.481139161387122272e+01,8.255270025626234087e+01,8.920702595221823117e+01,9.531134817859890518e+01
1.977539062500000000e-02,6.399639188225457076e+01,7.439609581231520963e+01,8.210950164060710676e+01,8.874719839582185443e+01,9.484269351470915410e+01
2.001953125000000000e-02,6.363051979519649137e+01,7.398097395618194128e+01,8.166618938831186369e+01,8.828697041549598623e+01,9.437335098585725746e+01
2.026367187499999653e-02,6.326515589182935173e+01,7.356608740756244913e+01,8.122283996700565467e+01,8.782643195238094336e+01,9.390342274658466692e+01
2.050781250000000000e-02,6.290034293616071182e+01,7.315149628430411610e+01,8.077952831656381250e+01,8.736567114083214847e+01,9.343300887160614820e+01
2.075195312500000000e-02,6.253612274393561421e+01,7.273725945746539878e+01,8.033632784397840965e+01,8.690477430164230555e+01,9.296220734831760524e+01
2.099609375000000000e-02,6.217253618411556459e+01,7.232343454990326848e+01,7.989331041976392100e+01,8.644382593721388730e+01,9.249111407166481058e+01
2.124023437500000000e-02,6.180962318108355902e+01,7.191007793595318276e+01,7.945054637584642876e+01,8.598290872861385026e+01,9.201982284128550305e+01
2.148437499999999653e-02,6.144742271754600438e+01,7.149724474216284875e+01,7.900810450488361880e+01,8.552210353444162649e+01,9.154842536083624793e+01
2.172851562499999653e-02,6.108597283810147616e+01,7.108498884903976034e+01,7.856605206096344318e+01,8.506148939144148358e+01,9.107701123941625099e+01
2.197265625000000000e-02,6.072531065344806223e+01,7.067336289377328740e+01,7.812445476162844216e+01,8.460114351679054323e+01,9.060566799499994772e+01
2.221679687500000000e-02,6.036547234519974126e+01,7.026241827389203820e+01,7.768337679117384198e+01,8.414114131199352187e+01,9.013448105979082925e+01
2.246093750000000000e-02,6.000649317128343796e+01,6.985220515181713097e+01,7.724288080516627986e+01,8.368155636831563982e+01,8.966353378740956259e+01
2.270507812499999653e-02,5.964840747188856795e+01,6.944277246027299100e+01,7.680302793613185486e+01,8.322246047368611244e+01,8.919290746183030194e+01
2.294921874999999653e-02,5.929124867594114789e+01,6.903416790851667884e+01,7.636387780036139361e+01,8.276392362100402522e+01,8.872268130797974095e+01
2.319335937500000000e-02,5.893504930807505815e+01,6.862643798934807648e+01,7.592548850578181430e+01,8.230601401778052661e+01,8.825293250391506206e+01
2.343750000000000000e-02,5.857984099607369899e+01,6.821962798686327289e+01,7.548791666084338203e+01,8.184879809705104492e+01,8.778373619449780563e+01
2.368164062500000000e-02,5.822565447875498990e+01,6.781378198491380260e+01,7.505121738437171075e+01,8.139234052949190357e+01,8.731516550648139230e+01
2.392578125000000000e-02,5.787251961427457303e+01,6.740894287623554249e+01,7.461544431633669205e+01,8.093670423667846592e+01,8.684729156493341407e+01
2.416992187499999653e-02,5.752046538882128601e+01,6.700515237221124210e+01,7.418064962948858465e+01,8.048195040542049128e+01,8.638018351091295699e+01
2.441406250000000000e-02,5.716951992568003504e+01,6.660245101323124572e+01,7.374688404181397061e+01,8.002813850311349597e+01,8.591390852032679959e+01
2.465820312500000000e-02,5.681971049463825096e+01,6.620087817961828591e+01,7.331419682976509478e+01,7.957532629404566649e+01,8.544853182388889934e+01
2.490234375000000000e-02,5.647106352171183374e+01,6.580047210308194394e+01,7.288263584221596147e+01,7.912356985660021280e+01,8.498411672810998141e+01
2.514648437500000000e-02,5.612360459916777700e+01,6.540126987867000707e+01,7.245224751510072281e+01,7.867292360129597739e+01,8.452072463724562112e+01
2.539062499999999653e-02,5.577735849582107619e+01,6.500330747718444968e+01,7.202307688669040431e+01,7.822344028960920070e+01,8.405841507613340013e+01
2.563476562500000000e-02,5.543234916758407849e+01,6.460661975803003543e+01,7.159516761346486646e+01,7.777517105352126237e+01,8.359724571385117997e+01
2.587890625000000000e-02,5.508859976824729898e+01,6.421124048246548455e+01,7.116856198653832166e+01,7.732816541573933478e+01,8.313727238813147835e+01
2.612304687500000000e-02,5.474613266047109050e+01,6.381720232722664576e+01,7.074330094859790563e+01,7.688247131053667260e+01,8.267854913046754461e+01
2.636718750000000000e-02,5.440496942696842098e+01,6.342453689849303089e+01,7.031942411131507242e+01,7.643813510516297072e+01,8.222112819185031185e+01
2.661132812499999653e-02,5.406513088185975136e+01,6.303327474616931170e+01,6.989696977319243842e+01,7.599520162177522309e+01,8.176506006907652591e+01
2.685546874999999653e-02,5.372663708218126999e+01,6.264344537845440897e+01,6.947597493780759237e+01,7.555371415984126315e+01,8.131039353157035521e+01
2.709960937500000000e-02,5.338950733952895433e+01,6.225507727667176283e+01,6.905647533241862845e+01,7.511371451897073825e+01,8.085717564866369855e+01
2.734375000000000000e-02,5.305376023182109435e+01,6.186819791033521199e+01,6.863850542689613121e+01,7.467524302212849818e+01,8.040545181728155910e+01
2.758789062500000000e-02,5.271941361516275038e+01,6.148283375242539250e+01,6.822209845294777608e+01,7.423833853918804948e+01,7.995526578998145339e+01
2.783203125000000000e-02,5.238648463579637848e+01,6.109901029485305202e+01,6.780728642360297442e+01,7.380303851078349453e+01,7.950665970329765742e+01
2.807617187499999653e-02,5.205498974212340357e+01,6.071675206408618664e+01,6.739410015292631329e+01,7.336937897242076190e+01,7.905967410634335124e+01
2.832031250000000000e-02,5.172494469678202478e+01,6.033608263691876772e+01,6.698256927592930765e+01,7.293739457880965915e+01,7.861434798962545756e+01
2.856445312500000000e-02,5.139636458876724134e+01,5.995702465635962142e+01,6.657272226865129028e+01,7.250711862838038257e+01,7.817071881402910094e+01
2.880859375000000000e-02,5.106926384558005338e+01,5.957959984762114658e+01,6.616458646838189850e+01,7.207858308794952507e+01,7.772882253993053325e+01
2.905273437500000000e-02,5.074365624539249353e+01,5.920382903418808951e+01,6.575818809399781628e+01,7.165181861750214409e+01,7.728869365639950217e+01
2.929687499999999653e-02,5.041955492921700710e+01,5.882973215394745381e+01,6.535355226638850468e+01,7.122685459505763106e+01,7.685036521045341829e+01
2.954101562499999653e-02,5.009697241306804472e+01,5.845732827536183862e+01,6.495070302894603742e+01,7.080371914158934032e+01,7.641386883632830518e+01
2.978515625000000000e-02,4.977592060010499608e+01,5.808663561366839190e+01,6.454966336809562222e+01,7.038243914596816353e+01,7.597923478473236969e+01
3.002929687500000000e-02,4.945641079274624019e+01,5.771767154708758341e+01,6.415045523384480930e+01,6.996304028990360280e+01,7.554649195205098522e+01
3.027343750000000000e-02,4.913845370474391672e+01,5.735045263302542651e+01,6.375309956032900516e+01,6.954554707285448956e+01,7.511566790947203742e+01
3.051757812499999653e-02,4.882205947321056527e+01,5.698499462425489526e+01,6.335761628633433418e+01,6.912998283688590107e+01,7.468678893200434743e+01
3.076171874999999653e-02,4.850723767058824620e+01,5.662131248506174330e+01,6.296402437577735611e+01,6.871636979144768986e+01,7.425988002736127669e+01
3.100585937500000000e-02,4.819399731655218488e+01,5.625942040734151561e+01,6.257234183812398243e+01,6.830472903805295459e+01,7.383496496468512760e+01
3.125000000000000000e-02,4.788234688984061194e+01,5.589933182663506273e+01,6.218258574872997713e+01,6.789508059483505065e+01,7.341206630308801095e+01
3.149414062500000000e-02,4.757229434000390000e+01,5.554105943809014434e+01,6.179477226908682752e+01,6.748744342096338755e+01,7.299120541998777867e+01
3.173828125000000000e-02,4.726384709906550086e+01,5.518461521233800937e+01,6.140891666695715401e+01,6.708183544089955319e+01,7.257240253921749229e+01
3.198242187500000000e-02,4.695701209308867874e+01,5.483001041127402431e+01,6.102503333638571803e+01,6.667827356847635656e+01,7.215567675888993904e+01
3.222656250000000000e-02,4.665179575364246745e+01,5.447725560373216069e+01,6.064313581757141947e+01,6.627677373078307710e+01,7.174104607899877806e+01
3.247070312500000000e-02,4.634820402916153625e+01,5.412636068104387732e+01,6.026323681658816156e+01,6.587735089184191395e+01,7.132852742873957652e+01
