# f(Hz),1.0,2.0,3.0,4.0,5.0
7.324218750000000000e-04,8.934641420584566163e+01,1.010626742699400893e+02,1.086789939910485572e+02,1.144731986381706719e+02,1.192145233952334138e+02
1.464843750000000000e-03,8.867069261151426929e+01,1.004836534694022134e+02,1.082335744364329457e+02,1.141799089528913100e+02,1.190853913305955700e+02
2.197265625000000000e-03,8.795814070189597089e+01,9.985305757970779439e+01,1.077240691042884322e+02,1.138113629488014595e+02,1.188708536090991146e+02
2.929687500000000000e-03,8.720995566647444264e+01,9.917219654638491022e+01,1.071517735540140848e+02,1.133687524916044111e+02,1.185719250588123970e+02
3.662109374999999566e-03,8.642745621950415114e+01,9.844256219854166545e+01,1.065182294739852580e+02,1.128535845717899093e+02,1.181900091439137555e+02
4.394531249999999133e-03,8.561207292590081863e+01,9.766581632551977066e+01,1.058252108708213086e+02,1.122676658593025962e+02,1.177268811457566926e+02
5.126953125000000000e-03,8.476533756578899670e+01,9.684377723190014819e+01,1.050747080388528474e+02,1.116130841696220699e+02,1.171846671990168858e+02
5.859375000000000000e-03,8.388887171279833410e+01,9.597840500024791766e+01,1.042689096018006296e+02,1.108921872099113415e+02,1.165658196448532209e+02
6.591796875000000000e-03,8.298437471152308831e+01,9.507178570954191343e+01,1.034101829487145210e+02,1.101075590199369145e+02,1.158730892307471692e+02
7.324218749999999133e-03,8.205361124472830170e+01,9.412611486877456457e+01,1.025010534067761228e+02,1.092619945555071297e+02,1.151094947363941259e+02
8.056640625000000000e-03,8.109839868097208182e+01,9.314368032968373257e+01,1.015441825044068764e+02,1.083584728816825162e+02,1.142782906358000190e+02
8.789062500000000000e-03,8.012059438857878035e+01,9.212684494021496562e+01,1.005423456794022741e+02,1.074001294490673075e+02,1.133829334175587604e+02
9.521484375000000000e-03,7.912208319278541069e+01,9.107802919159533417e+01,9.949840977905924433e+01,1.063902279196946523e+02,1.124270471789399153e+02
1.025390625000000000e-02,7.810476513997150505e+01,8.999969409752139882e+01,9.841531068331838128e+01,1.053321319904642195e+02,1.114143890864100257e+02
1.098632812500000000e-02,7.707054371685303806e+01,8.889432452478234836e+01,9.729603135889819043e+01,1.042292776332499642e+02,1.103488152576345271e+02
1.171875000000000000e-02,7.602131465411706301e+01,8.776441317161894062e+01,9.614358062352530965e+01,1.030851461334177941e+02,1.092342475703690496e+02
1.245117187500000000e-02,7.495895542395814459e+01,8.661244536428411323e+01,9.496097286603836096e+01,1.019032382645081327e+02,1.080746418447166661e+02
1.318359375000000000e-02,7.388531552010097414e+01,8.544088481464075358e+01,9.375120893176902825e+01,1.006870498882287137e+02,1.068739577798564682e+02
1.391601562500000000e-02,7.280220758785490887e+01,8.425216045319446323e+01,9.251725834455723430e+01,9.944004921763111327e+01,1.056361309573442071e+02
1.464843749999999827e-02,7.171139945117604952e+01,8.304865442361260364e+01,9.126204299831748301e+01,9.816565592924506234e+01,1.043650471530642108e+02
1.538085937499999827e-02,7.061460706414938215e+01,8.183269129732089198e+01,8.998842241339200143e+01,9.686722225867217162e+01,1.030645191312118101e+02
1.611328125000000000e-02,6.951348839618376019e+01,8.060652854086254138e+01,8.869918061698624001e+01,9.554801616511815610e+01,1.017382660282977156e+02
1.684570312500000000e-02,6.840963824386754766e+01,7.937234824488034235e+01,8.739701467358179343e+01,9.421120660472772101e+01,1.003898953746817568e+02
1.757812500000000000e-02,6.730458394809056699e+01,7.813225010222762990e+01,8.608452486097236545e+01,9.285985091126345026e+01,9.902288774676021887e+01
1.831054687500000000e-02,6.619978198282288417e+01,7.688824560408433229e+01,8.476420646088763533e+01,9.149688424625547611e+01,9.764058399544022393e+01
1.904296875000000000e-02,6.509661537190012837e+01,7.564225340717888457e+01,8.343844311030758831e+01,9.012511104959864383e+01,9.624617495637563991e+01
1.977539062500000000e-02,6.399639188225457076e+01,7.439609581231520963e+01,8.210950164060710676e+01,8.874719839582185443e+01,9.484269351470915410e+01
2.050781250000000000e-02,6.290034293616071182e+01,7.315149628430411610e+01,8.077952831656381250e+01,8.736567114083214847e+01,9.343300887160614820e+01
2.124023437500000347e-02,6.180962318108355191e+01,7.191007793595316855e+01,7.945054637584640034e+01,8.598290872861383605e+01,9.201982284128547462e+01
2.197265625000000000e-02,6.072531065344806223e+01,7.067336289377328740e+01,7.812445476162844216e+01,8.460114351679054323e+01,9.060566799499994772e+01
2.270507812500000347e-02,5.964840747188855374e+01,6.944277246027299100e+01,7.680302793613185486e+01,8.322246047368608401e+01,8.919290746183027352e+01
2.343750000000000000e-02,5.857984099607369899e+01,6.821962798686327289e+01,7.548791666084338203e+01,8.184879809705104492e+01,8.778373619449780563e+01
2.416992187500000347e-02,5.752046538882127891e+01,6.700515237221121367e+01,7.418064962948858465e+01,8.048195040542047707e+01,8.638018351091294278e+01
2.490234375000000347e-02,5.647106352171182664e+01,6.580047210308191552e+01,7.288263584221594726e+01,7.912356985660018438e+01,8.498411672810996720e+01
2.563476562500000000e-02,5.543234916758407849e+01,6.460661975803003543e+01,7.159516761346486646e+01,7.777517105352126237e+01,8.359724571385117997e+01
2.636718750000000347e-02,5.440496942696842098e+01,6.342453689849303089e+01,7.031942411131507242e+01,7.643813510516297072e+01,8.222112819185031185e+01
2.709960937500000000e-02,5.338950733952895433e+01,6.225507727667176283e+01,6.905647533241862845e+01,7.511371451897073825e+01,8.085717564866369855e+01
2.783203125000000347e-02,5.238648463579637848e+01,6.109901029485304491e+01,6.780728642360297442e+01,7.380303851078348032e+01,7.950665970329764320e+01
2.856445312500000000e-02,5.139636458876724134e+01,5.995702465635962142e+01,6.657272226865129028e+01,7.250711862838038257e+01,7.817071881402910094e+01
2.929687500000000347e-02,5.041955492921699999e+01,5.882973215394745381e+01,6.535355226638850468e+01,7.122685459505763106e+01,7.685036521045340407e+01
3.002929687500000000e-02,4.945641079274624019e+01,5.771767154708758341e+01,6.415045523384480930e+01,6.996304028990360280e+01,7.554649195205098522e+01
3.076171875000000000e-02,4.850723767058826041e+01,5.662131248506174330e+01,6.296402437577737032e+01,6.871636979144768986e+01,7.425988002736129090e+01
3.149414062500000694e-02,4.757229434000387869e+01,5.554105943809012302e+01,6.179477226908677778e+01,6.748744342096334492e+01,7.299120541998775025e+01
3.222656250000000000e-02,4.665179575364246745e+01,5.447725560373216069e+01,6.064313581757141947e+01,6.627677373078307710e+01,7.174104607899877806e+01
3.295898437500000000e-02,4.574591587053630803e+01,5.343018676051440963e+01,5.950948113895479707e+01,6.508479139145518388e+01,7.050988874175678234e+01
3.369140625000000000e-02,4.485479041440568437e+01,5.240008504511426679e+01,5.839410835215250728e+01,6.391185093938408812e+01,6.929813556675172492e+01
3.442382812500000000e-02,4.397851954768128024e+01,5.138713263344649818e+01,5.729725623828536385e+01,6.275823635371598641e+01,6.810611054262059838e+01
3.515625000000000000e-02,4.311717045210215105e+01,5.039146530965757620e+01,5.621910675398823543e+01,6.162416643766025715e+01,6.693406564721389884e+01
3.588867187500000000e-02,4.227077980893047737e+01,4.941317591033114809e+01,5.515978938010521659e+01,6.050979998517571090e+01,6.578218673734853894e+01
3.662109375000000694e-02,4.143935617374896196e+01,4.845231763415664972e+01,5.411938529291539624e+01,5.941524071902699689e+01,6.465059915580970085e+01
3.735351562500000000e-02,4.062288224248993629e+01,4.750890720992603633e+01,5.309793134861769204e+01,5.834054199066057578e+01,6.353937304728348323e+01
3.808593750000000000e-02,3.982131700680202613e+01,4.658292791801825672e+01,5.209542387494015259e+01,5.728571123619840222e+01,6.244852837927762579e+01
3.881835937500000000e-02,3.903459779810979313e+01,4.567433246252858225e+01,5.111182226646175053e+01,5.625071418614818697e+01,6.137803966778226084e+01
3.955078125000000000e-02,3.826264222078100374e+01,4.478304569292139092e+01,5.014705238256814823e+01,5.523547882922220253e+01,6.032784041050106083e+01
4.028320312499999306e-02,3.750534997570350981e+01,4.390896717555301620e+01,4.920100974894373280e+01,5.423989913299251242e+01,5.929782723300696290e+01
4.101562499999999306e-02,3.676260457630744583e+01,4.305197361664998112e+01,4.827356256516040389e+01,5.326383852603338198e+01,5.828786375521143270e+01
4.174804687500000000e-02,3.603427495966464988e+01,4.221192113935765633e+01,4.736455452229215268e+01,5.230713314775587008e+01,5.729778418713650723e+01
4.248046875000000000e-02,3.532021699577156681e+01,4.138864741831823579e+01,4.647380743559305216e+01,5.136959487336957864e+01,5.632739666420214775e+01
4.321289062499999306e-02,3.462027489849102579e+01,4.058197367591512972e+01,4.560112369815661992e+01,5.045101412235028704e+01,5.537648633313862234e+01
4.394531250000000000e-02,3.393428254190333604e+01,3.979170654485336911e+01,4.474628856215149142e+01,4.955116245948882181e+01,5.444481820025060159e+01
4.467773437500000000e-02,3.326206468601353095e+01,3.901763980214882110e+01,4.390907225473045372e+01,4.866979499807946752e+01,5.353213975413871140e+01
4.541015624999999306e-02,3.260343811588830221e+01,3.825955597989144508e+01,4.308923193605885160e+01,4.780665261510673503e+01,5.263818337516450185e+01
4.614257812499999306e-02,3.195821269836502410e+01,3.751722785834439833e+01,4.228651350712689805e+01,4.696146398843619352e+01,5.176266854395883144e+01
4.687500000000000000e-02,3.132619236049539424e+01,3.679041984705408197e+01,4.150065327511876490e+01,4.613394746603303531e+01,5.090530386115209893e+01
4.760742187500000000e-02,3.070717599386458829e+01,3.607888925969021443e+01,4.073137948412489351e+01,4.532381277714377887e+01,5.006578889027344559e+01
4.833984374999999306e-02,3.010095828887240188e+01,3.538238748831996361e+01,3.997841371892130979e+01,4.453076259520159397e+01,4.924381583544815300e+01
4.907226562500000000e-02,2.950733050298066118e+01,3.470066108275681671e+01,3.924147218941278226e+01,4.375449396197229390e+01,4.843907106513720606e+01
4.980468750000000000e-02,2.892608116682724173e+01,3.403345274052097125e+01,3.852026690315853585e+01,4.299469958215952659e+01,4.765123649272789663e+01
5.053710937499999306e-02,2.835699673198598703e+01,3.338050221281166330e+01,3.781450673318013145e+01,4.225106899734871035e+01,4.687999082431244346e+01
5.126953124999999306e-02,2.779986216401855614e+01,3.274154713173151521e+01,3.712389838800154251e+01,4.152328964780043208e+01,4.612501068349733657e+01
5.200195312500000000e-02,2.725446148432045135e+01,3.211632376382049614e+01,3.644814729059772418e+01,4.081104783021397964e+01,4.538597162257663342e+01
5.273437500000000000e-02,2.672057826411461079e+01,3.150456769476249974e+01,3.578695837263791191e+01,4.011402955917933610e+01,4.466254902888834977e+01
5.346679687499999306e-02,2.619799607379214734e+01,3.090601444992082847e+01,3.514003679010977521e+01,3.943192133962796220e+01,4.395441893466028915e+01
5.419921875000000000e-02,2.568649889064521830e+01,3.032040005514685177e+01,3.450708856610431496e+01,3.876441085718358437e+01,4.326125873814597611e+01
5.493164062500000000e-02,2.518587146788201281e+01,2.974746154208978766e+01,3.388782116623337970e+01,3.811118759290963709e+01,4.258274784335628027e+01
5.566406250000000000e-02,2.469589966765991562e+01,2.918693740201893050e+01,3.328194401184559581e+01,3.747194336855225316e+01,4.191856822521272363e+01
5.639648437499999306e-02,2.421637076072276429e+01,2.863856799195381342e+01,3.268916893590527195e+01,3.684637282799113933e+01,4.126840492648551617e+01
5.712890625000000000e-02,2.374707369508021060e+01,2.810209589668591690e+01,3.210921058610372825e+01,3.623417386023617581e+01,4.063194649243580159e+01
5.786132812500000000e-02,2.328779933602467977e+01,2.757726625006684529e+01,3.154178677948587151e+01,3.563504796894720528e+01,4.000888534865809021e+01
5.859374999999999306e-02,2.283834067964270886e+01,2.706382701873623375e+01,3.098661881259862838e+01,3.504870059310962915e+01,3.939891812721679543e+01
5.932617187499999306e-02,2.239849304184505385e+01,2.656152925126641762e+01,3.044343173090148724e+01,3.447484138316979596e+01,3.880174594578996050e+01
6.005859375000000000e-02,2.196805422481212489e+01,2.607012729551265906e+01,2.991195456092511762e+01,3.391318443662206050e+01,3.821707464417424660e+01
6.079101562500000000e-02,2.154682466262966045e+01,2.558937898677612210e+01,2.939192050842127912e+01,3.336344849674322433e+01,3.764461498216731883e+01
6.152343749999999306e-02,2.113460754777345230e+01,2.511904580921464003e+01,2.888306712551679212e+01,3.282535711789252275e+01,3.708408280252709943e+01
6.225585937500000000e-02,2.073120893999198344e+01,2.465889303277058531e+01,2.838513644966590732e+01,3.229863880053180480e+01,3.653519916241101129e+01
6.298828125000000000e-02,2.033643785903087675e+01,2.420868982772908140e+01,2.789787511698956379e+01,3.178302709887533695e+01,3.599769043642130839e+01
6.372070312500000000e-02,1.995010636254474790e+01,2.376820935887101882e+01,2.742103445239502335e+01,3.127826070384772805e+01,3.547128839412532386e+01
6.445312500000000000e-02,1.957202961044821521e+01,2.333722886104508021e+01,2.695437053868780453e+01,3.078408350381321412e+01,3.495573025467914619e+01
6.518554687500000000e-02,1.920202591687030136e+01,2.291552969785066196e+01,2.649764426671561424e+01,3.030024462533884488e+01,3.445075872096136749e+01
6.591796875000000000e-02,1.883991679079336024e+01,2.250289740499864521e+01,2.605062136842435550e+01,2.982649845606704986e+01,3.395612199541663045e+01
6.665039062500000000e-02,1.848552696638018489e+01,2.209912171980022322e+01,2.561307243455620508e+01,2.936260465159933730e+01,3.347157377961861613e+01
6.738281250000000000e-02,1.813868442391975577e+01,2.170399659812377990e+01,2.518477291858012990e+01,2.890832812813163599e+01,3.299687325938514704e+01
6.811523437500000000e-02,1.779922040225371305e+01,2.131732022005692428e+01,2.476550312831485812e+01,2.846343904243242662e+01,3.253178507711545109e+01
6.884765625000000000e-02,1.746696940348195781e+01,2.093889498541482297e+01,2.435504820658382030e+01,2.802771276061647399e+01,3.207607929287004112e+01
6.958007812500000000e-02,1.714176919068529159e+01,2.056852750014573417e+01,2.395319810212850342e+01,2.760092981703942883e+01,3.162953133557483199e+01
7.031250000000000000e-02,1.682346077934774442e+01,2.020602855460074210e+01,2.355974753190276871e+01,2.718287586451986115e+01,3.119192194560432441e+01
7.104492187500000000e-02,1.651188842310859428e+01,1.985121309455713856e+01,2.317449593577418909e+01,2.677334161698779980e+01,3.076303710988241491e+01
7.177734375000000000e-02,1.620689959442554340e+01,1.950390018581143536e+01,2.279724742456861719e+01,2.637212278555707456e+01,3.034266799053119001e+01
7.250976562500000000e-02,1.590834496068521453e+01,1.916391297309097652e+01,2.242781072231204220e+01,2.597902000892798213e+01,2.993061084800077865e+01
7.324218750000000000e-02,1.561607835625488150e+01,1.883107863397021831e+01,2.206599910344709059e+01,2.559383877894093473e+01,2.952666695952277465e+01
7.397460937500000000e-02,1.532995675092987575e+01,1.850522832841934928e+01,2.171163032573131701e+01,2.521638936202457870e+01,2.913064253364721523e+01
7.470703125000000000e-02,1.504984021519495307e+01,1.818619714455940084e+01,2.136452655945959123e+01,2.484648671721003765e+01,2.874234862154821002e+01
7.543945312500000000e-02,1.477559188268359947e+01,1.787382404114759638e+01,2.102451431359286715e+01,2.448395041131767513e+01,2.836160102571376029e+01
7.617187500000000000e-02,1.450707791018791504e+01,1.756795178727074713e+01,2.069142435932093704e+01,2.412860453186251064e+01,2.798822020657282650e+01
7.690429687500000000e-02,1.424416743554252918e+01,1.726842689968192346e+01,2.036509165153615442e+01,2.378027759816985309e+01,2.762203118755539322e+01
7.763671875000000000e-02,1.398673253367872249e+01,1.697509957817570125e+01,2.004535524864852292e+01,2.343880247114206128e+01,2.726286345902822106e+01
7.836914062500000000e-02,1.373464817111993952e+01,1.668782363936149693e+01,1.973205823113031698e+01,2.310401626207190873e+01,2.691055088150232066e+01
7.910156250000000000e-02,1.348779215916650642e+01,1.640645644916046209e+01,1.942504761913897582e+01,2.277576024085579220e+01,2.656493158846391367e+01
7.983398437500000000e-02,1.324604510599583307e+01,1.613085885432079536e+01,1.912417428953165555e+01,2.245387974392193797e+01,2.622584788914172194e+01
8.056640625000001388e-02,1.300929036788452997e+01,1.586089511321773315e+01,1.882929289255164917e+01,2.213822408215406767e+01,2.589314617148732722e+01
8.129882812500000000e-02,1.277741399974020986e+01,1.559643282617828675e+01,1.854026176843735740e+01,2.182864644905899709e+01,2.556667680561284683e+01
8.203125000000000000e-02,1.255030470511395535e+01,1.533734286554682136e+01,1.825694286417686030e+01,2.152500382939798840e+01,2.524629404790066545e+01
8.276367187500001388e-02,1.232785378584851443e+01,1.508349930568542696e+01,1.797920165060637387e+01,2.122715690847558179e+01,2.493185594597327892e+01
8.349609375000000000e-02,1.210995509150283667e+01,1.483477935308277296e+01,1.770690704002790028e+01,2.093496998225532479e+01,2.462322424468687387e+01
8.422851562500000000e-02,1.189650496867999863e+01,1.459106327672639480e+01,1.743993130450075668e+01,2.064831086845083874e+01,2.432026429329053485e+01
8.496093750000001388e-02,1.168740221037356797e+01,1.435223433887669309e+01,1.717814999494287065e+01,2.036705081872071332e+01,2.402284495387332797e+01
8.569335937500000000e-02,1.148254800543551646e+01,1.411817872636490279e+01,1.692144186116025395e+01,2.009106443207792836e+01,2.373083851120313881e+01
8.642578125000001388e-02,1.128184588825878087e+01,1.388878548252325729e+01,1.666968877290769768e+01,1.982022956960885196e+01,2.344412058404565968e+01
8.715820312500001388e-02,1.108520168875767276e+01,1.366394643984266821e+01,1.642277564206961316e+01,1.955442727058206032e+01,2.316257003803712422e+01
8.789062500000000000e-02,1.089252348272044379e+01,1.344355615344098709e+01,1.618059034603674462e+01,1.929354167001419285e+01,2.288606890017123519e+01
8.862304687500001388e-02,1.070372154260022590e+01,1.322751183541438103e+01,1.594302365234332264e+01,1.903745991774861679e+01,2.261450227494943377e+01
8.935546875000001388e-02,1.051870828880308828e+01,1.301571329013446565e+01,1.570996914461839289e+01,1.878607209909166542e+01,2.234775826223289030e+01
9.008789062500000000e-02,1.033739824152482356e+01,1.280806285054453575e+01,1.548132314989556235e+01,1.853927115704200190e+01,2.208572787682523497e+01
9.082031250000001388e-02,1.015970797318215446e+01,1.260446531550049620e+01,1.525698466731709857e+01,1.829695281614007740e+01,2.182830496980690782e+01
9.155273437500000000e-02,9.985556061477947054e+00,1.240482788819440430e+01,1.503685529826035960e+01,1.805901550795713462e+01,2.157538615163441165e+01
9.228515625000000000e-02,9.814863043134758769e+00,1.220906011569178062e+01,1.482083917790765604e+01,1.782536029823609169e+01,2.132687071701099768e+01
9.301757812500001388e-02,9.647551368326366728e+00,1.201707382960804615e+01,1.460884290827458720e+01,1.759589081569103541e+01,2.108266057152982142e+01
9.375000000000000000e-02,9.483545355832387003e+00,1.182878308794361111e+01,1.440077549270615620e+01,1.737051318246641074e+01,2.084266016008510292e+01
9.448242187500000000e-02,9.322771148936912056e+00,1.164410411809233992e+01,1.419654827184503887e+01,1.714913594625210536e+01,2.060677639704227460e+01
9.521484375000001388e-02,9.165156672088738077e+00,1.146295526103371110e+01,1.399607486107213106e+01,1.693167001404684768e+01,2.037491859815438389e+01
9.594726562500000000e-02,9.010631588337071562e+00,1.128525691671485909e+01,1.379927108941529212e+01,1.671802858755824417e+01,2.014699841420823034e+01
9.667968750000001388e-02,8.859127257553719659e+00,1.111093149062502228e+01,1.360605493991896964e+01,1.650812710022460195e+01,1.992292976638069035e+01
9.741210937500001388e-02,8.710576695450020779e+00,1.093990334156198685e+01,1.341634649146419278e+01,1.630188315584114633e+01,1.970262878328333045e+01
