# f(Hz),1.0,2.0,3.0,4.0,5.0
1.953125000000000108e-04,1.112630448689121977e+03,1.114088810578607081e+03,1.115409213386398278e+03,1.116664542018900420e+03,1.117879879833244786e+03
1.171874999999999957e-03,1.084579225991210478e+03,1.093136790141239999e+03,1.100933283521315388e+03,1.108388452759132633e+03,1.115646157751417377e+03
2.148437500000000173e-03,1.054239566779251618e+03,1.069539673008541968e+03,1.083566238141669373e+03,1.097056382497780987e+03,1.110262056005136401e+03
3.125000000000000173e-03,1.021895157149663760e+03,1.043538041721293212e+03,1.063503509152160859e+03,1.082816596024746104e+03,1.101827279577136323e+03
4.101562500000000173e-03,9.878599611406818894e+02,1.015410583915441066e+03,1.040984835258577732e+03,1.065866644915840652e+03,1.090494693864038709e+03
5.078125000000000173e-03,9.524673234082177942e+02,9.854639582264351247e+02,1.016285051915613053e+03,1.046445221420956841e+03,1.076463359736255597e+03
6.054687500000000173e-03,9.160588248751495257e+02,9.540219801496838272e+02,9.897038249731358519e+02,1.024822619971641188e+03,1.059969877205196099e+03
7.031250000000000173e-03,8.789736149195068720e+02,9.214148646312207802e+02,9.615550601108907358e+02,1.001290519426171613e+03,1.041278719373888634e+03
8.007812499999999306e-03,8.415388316060716534e+02,8.879691833052755783e+02,9.321566730906105249e+02,9.761517832182156553e+02,1.020672252750783173e+03
8.984374999999999306e-03,8.040615595922192824e+02,8.539990567091500679e+02,9.018212933131080717e+02,9.497108880192378138e+02,9.984410801383488661e+02
9.960937499999999306e-03,7.668225916048093040e+02,8.197989316937272406e+02,8.708483191846092950e+02,9.222654558794004060e+02,9.748752268535780559e+02
1.093749999999999931e-02,7.300720801772449704e+02,7.856381181574199672e+02,8.395175744737836112e+02,8.940992052466190216e+02,9.502565438097174138e+02
1.191406250000000104e-02,6.940270121478731653e+02,7.517570993156047052e+02,8.080846533392757465e+02,8.654764764425125350e+02,9.248525457088945814e+02
1.289062500000000278e-02,6.588703216955074140e+02,7.183655009593105660e+02,7.767779049717652242e+02,8.366383455718070081e+02,8.989117588814920055e+02
1.386718749999999931e-02,6.247513827682289502e+02,6.856415146859624201e+02,7.457969063134435146e+02,8.078002289987498443e+02,8.726605344728786804e+02
1.484374999999999931e-02,5.917875863732830339e+02,6.537325181545088526e+02,7.153122056219559681e+02,7.791508030808893182e+02,8.463011953151711850e+02
1.582031250000000278e-02,5.600667056852131509e+02,6.227566173325285490e+02,6.854660879138474456e+02,7.508520198167451554e+02,8.200113297260255649e+02
1.679687500000000278e-02,5.296497735612326778e+02,5.928048440044210565e+02,6.563741094125123254e+02,7.230399836663799533e+02,7.939440192824845326e+02
1.777343749999999931e-02,5.005742338994857619e+02,5.639437681992222906e+02,6.281271644919395385e+02,6.958264613578064655e+02,7.682287845922535325e+02
1.874999999999999931e-02,4.728571724880071088e+02,5.362183219354761832e+02,6.007938777837882753e+02,6.693008179348277054e+02,7.429730466820539050e+02
1.972656250000000278e-02,4.464984784524935435e+02,5.096546714056016185e+02,5.744231496578488532e+02,6.435322022394242367e+02,7.182639256127613407e+02
2.070312500000000278e-02,4.214838298920330431e+02,4.842630147583623170e+02,5.490467202200104566e+02,6.185718382928494066e+02,6.941702270659612850e+02
2.167968749999999931e-02,3.977874342870875353e+02,4.600402189550122216e+02,5.246816518622199510e+02,5.944553118926161233e+02,6.707444979377710297e+02
2.265624999999999931e-02,3.753744846492130023e+02,4.369722401360996287e+02,5.013326611837460405e+02,5.712047717533079094e+02,6.480250606934741882e+02
2.363281250000000278e-02,3.542033160286423481e+02,4.150362969644764917e+02,4.789942568134255794e+02,5.488309903669269261e+02,6.260379617449000307e+02
2.460937500000000278e-02,3.342272644123166287e+02,3.942027856524281333e+02,4.576526601158865333e+02,5.273352509528060637e+02,6.047987906331917429e+02
2.558593750000000278e-02,3.153962420844976009e+02,3.744369394193760741e+02,4.372875012863601683e+02,5.067110434837484263e+02,5.843143441666477429e+02
2.656249999999999931e-02,2.976580511687732837e+02,3.557002447569707329e+02,4.178732945368356582e+02,4.869455652331205897e+02,5.645841231060583141e+02
2.753906250000000278e-02,2.809594612970909111e+02,3.379516329537421484e+02,3.993807036772672632e+02,4.680210301792254199e+02,5.456016589605250147e+02
2.851562500000000278e-02,2.652470790373423597e+02,3.211484686638992230e+02,3.817776141331079316e+02,4.499157975738411324e+02,5.273556755038773645e+02
2.949218749999999931e-02,2.504680366013928108e+02,3.052473586112419071e+02,3.650300299899116681e+02,4.326053336541555154e+02,5.098310943064622052e+02
3.046874999999999931e-02,2.365705260517675299e+02,2.902048033984960966e+02,3.491028156005518781e+02,4.160630224087333886e+02,4.930098964213623844e+02
3.144531250000000278e-02,2.235042031925517563e+02,2.759777143234318260e+02,3.339603011111692012e+02,4.002608419712658474e+02,4.768718538245761920e+02
3.242187500000000278e-02,2.112204829137578770e+02,2.625238154539136417e+02,3.195667703385183813e+02,3.851699229949936694e+02,4.613951446666877700e+02
3.339843750000000278e-02,1.996727452044469828e+02,2.498019492570928719e+02,3.058868480542898283e+02,3.707610045573915158e+02,4.465568661558788790e+02
3.437500000000000278e-02,1.888164685252860124e+02,2.377723020074005547e+02,2.928858021153992581e+02,3.570048019878377090e+02,4.323334581977076141e+02
3.535156250000000278e-02,1.786093048425561562e+02,2.263965631460248460e+02,2.805297741754133654e+02,3.438722996688077842e+02,4.187010499464486202e+02
3.632812500000000278e-02,1.690111084348264967e+02,2.156380308160678680e+02,2.687859510249099344e+02,3.313349804529910330e+02,4.056357403082639621e+02
3.730468749999999584e-02,1.599839286206213274e+02,2.054616740025572881e+02,2.576226870044097836e+02,3.193650019459483360e+02,3.931138222718510065e+02
3.828125000000000278e-02,1.514919748286503705e+02,1.958341600899243247e+02,2.470095864520899624e+02,3.079353285789358665e+02,3.811119597914106976e+02
3.925781250000000278e-02,1.435015609354575474e+02,1.867238552192085876e+02,2.369175538097781839e+02,2.970198271704722401e+02,3.696073248511053180e+02
4.023437499999999584e-02,1.359810345139045467e+02,1.781008035795074420e+02,2.273188178212555783e+02,2.865933325640501153e+02,3.585777013243018700e+02
4.121093750000000278e-02,1.289006955502228209e+02,1.699366906924224168e+02,2.181869352142369962e+02,2.766316889384419824e+02,3.480015613175696672e+02
4.218750000000000278e-02,1.222327082758944385e+02,1.622047948298671542e+02,2.094967783535024921e+02,2.671117715146262981e+02,3.378581188630261067e+02
4.316406249999999584e-02,1.159510090016414239e+02,1.548799299282237314e+02,2.012245105763349500e+02,2.580114926233520123e+02,3.281273650920988416e+02
4.414062500000000278e-02,1.100312122134975965e+02,1.479383827087180237e+02,1.933475522599348437e+02,2.493097954410681609e+02,3.187900883844128543e+02
4.511718749999999584e-02,1.044505166761006905e+02,1.413578461688536834e+02,1.858445401107408941e+02,2.409866381394305677e+02,3.098278824305972989e+02
4.609375000000000278e-02,9.918761286866585181e+01,1.351173511577131023e+02,1.786952816948295037e+02,2.330229707145437885e+02,3.012231446695431600e+02
4.707031250000000278e-02,9.422259273931989298e+01,1.291971973752317240e+02,1.718807068348562268e+02,2.254007063564351938e+02,2.929590671509394042e+02
4.804687499999999584e-02,8.953686249027182953e+01,1.235788848299726794e+02,1.653828171713983579e+02,2.181026888774473491e+02,2.850196215247445934e+02
4.902343750000000278e-02,8.511305888826309740e+01,1.182450465408109750e+02,1.591846349153110225e+02,2.111126574315739504e+02,2.773895395630742087e+02
5.000000000000000278e-02,8.093496942212583178e+01,1.131793830660000992e+02,1.532701515941554362e+02,2.044152095173492398e+02,2.700542903697663064e+02
5.097656250000000278e-02,7.698745649388240508e+01,1.083665992804078542e+02,1.476242774124006303e+02,1.979957630577733312e+02,2.630000552223172576e+02
5.195312500000000278e-02,7.325638572474230159e+01,1.037923436915044704e+02,1.422327916954237139e+02,1.918405181857808657e+02,2.562137008142893251e+02
5.292968749999999584e-02,6.972855837685787606e+01,9.944315048124187228e+01,1.370822947657662780e+02,1.859364192276064216e+02,2.496827515186874962e+02
5.390625000000000278e-02,6.639164783102921774e+01,9.530638437948225317e+01,1.321601615019197311e+02,1.802711172645018394e+02,2.433953611698431416e+02
5.488281250000000278e-02,6.323414001577172883e+01,9.137018841108417178e+01,1.274544967510726536e+02,1.748329335616566311e+02,2.373402847592224703e+02
5.585937499999999584e-02,6.024527765105955979e+01,8.762343450980230841e+01,1.229540927044003098e+02,1.696108240785451926e+02,2.315068503560683268e+02
5.683593750000000278e-02,5.741500814798969543e+01,8.405567695501265746e+01,1.186483882937527170e+02,1.645943452144036883e+02,2.258849314940634088e+02
5.781250000000000278e-02,5.473393499143706009e+01,8.065710855966116810e+01,1.145274306296467017e+02,1.597736208937519677e+02,2.204649202079190218e+02
5.878906249999999584e-02,5.219327242473899275e+01,7.741851951784767039e+01,1.105818384703013351e+02,1.551393110577782011e+02,2.152377008568908821e+02
5.976562500000000278e-02,4.978480325215855373e+01,7.433125880656248796e+01,1.068027676884449022e+02,1.506825815963244679e+02,2.101946248340124157e+02
6.074218749999999584e-02,4.750083957519132127e+01,7.138719802701339745e+01,1.031818786853969243e+02,1.463950757307084700e+02,2.053274862288469080e+02
6.171875000000000278e-02,4.533418628179688170e+01,6.857869756568921105e+01,9.971130568937530825e+01,1.422688868385253613e+02,2.006284984865809804e+02
6.269531250000000278e-02,4.327810711262936394e+01,6.589857495296054424e+01,9.638362786616856681e+01,1.382965326968974296e+02,1.960902720862857223e+02
6.367187500000000278e-02,4.132629313473675126e+01,6.334007529693990790e+01,9.319184216448762470e+01,1.344709311095598139e+02,1.917057932452896694e+02
6.464843750000000278e-02,3.947283346054875608e+01,6.089684367196339565e+01,9.012933781485000395e+01,1.307853768750136396e+02,1.874684036441279602e+02
6.562500000000000278e-02,3.771218805791943396e+01,5.856289934397607766e+01,8.718987239924037169e+01,1.272335200471741530e+02,1.833717811568405409e+02
6.660156250000000278e-02,3.603916250526470577e+01,5.633261171894805130e+01,8.436754940862499552e+01,1.238093454360332828e+02,1.794099215639936915e+02
6.757812500000000278e-02,3.444888455422384510e+01,5.420067790494167781e+01,8.165679720633461613e+01,1.205071532934581171e+02,1.755771212202730283e+02
6.855468750000000278e-02,3.293678237061973135e+01,5.216210178336781667e+01,7.905234931709865975e+01,1.173215411280430942e+02,1.718679606444851800e+02
6.953125000000000278e-02,3.149856433267799005e+01,5.021217449013968093e+01,7.654922596389857858e+01,1.142473865926734362e+02,1.682772889970367203e+02
7.050781250000000278e-02,3.013020027340342466e+01,4.834645621272024840e+01,7.414271677762671686e+01,1.112798313889210959e+02,1.648002094081726625e+02
7.148437500000000278e-02,2.882790406164417263e+01,4.656075921435982679e+01,7.182836460765653896e+01,1.084142661334173852e+02,1.614320651192720391e+02
7.246093750000000278e-02,2.758811742365909936e+01,4.485113200205733364e+01,6.960195036473467667e+01,1.056463161327892806e+02,1.581684263991410830e+02
7.343750000000000278e-02,2.640749491391776971e+01,4.321384455989031181e+01,6.745947883100829756e+01,1.029718280154885832e+02,1.550050781973818346e+02
7.441406250000000278e-02,2.528288995039298115e+01,4.164537457430645162e+01,6.539716537543716868e+01,1.003868571708053139e+02,1.519380084974373801e+02
7.539062500000000278e-02,2.421134183574903886e+01,4.014239458272062677e+01,6.341142351625343565e+01,9.788765594745832743e+01,1.489633973327348997e+02
7.636718750000000278e-02,2.319006369158939762e+01,3.870175998129754191e+01,6.149885327548432201e+01,9.547066256633983983e+01,1.460776064303814223e+02
7.734375000000000278e-02,2.221643123831308841e+01,3.732049783211054006e+01,5.965623027381619181e+01,9.313249070421663589e+01,1.432771694480686904e+02
7.832031250000000278e-02,2.128797235815280331e+01,3.599579641394478813e+01,5.788049551722829023e+01,9.086991970741520674e+01,1.405587827711505042e+02
7.929687500000000278e-02,2.040235738364432194e+01,3.472499546485734356e+01,5.616874582984866038e+01,8.867988539672025183e+01,1.379192968382373863e+02
8.027343749999998890e-02,1.955739005812246845e+01,3.350557706822223025e+01,5.451822489037277819e+01,8.655947142687195139e+01,1.353557079650764763e+02
8.125000000000000278e-02,1.875099911887183168e+01,3.233515713737718755e+01,5.292631483213102683e+01,8.450590116614002056e+01,1.328651506379208342e+02
8.222656250000000278e-02,1.798123045729819935e+01,3.121147745716231370e+01,5.139052836949388592e+01,8.251653006347605412e+01,1.304448902490284468e+02
8.320312499999998890e-02,1.724623981394667283e+01,3.013239824360283947e+01,4.990850141576095922e+01,8.058883847268367617e+01,1.280923162483444742e+02
8.417968749999998890e-02,1.654428596939456853e+01,2.909589118575357247e+01,4.847798615999758454e+01,7.872042490490431987e+01,1.258049356868072977e+02
8.515624999999998890e-02,1.587372439500565235e+01,2.810003293629633703e+01,4.709684457245977285e+01,7.690899968248122320e+01,1.235803671280630169e+02
8.613281249999998890e-02,1.523300133026642200e+01,2.714299901987820007e+01,4.576304231029268976e+01,7.515237896894265646e+01,1.214163349066735975e+02
8.710937500000000278e-02,1.462064825594932493e+01,2.622305813040481226e+01,4.447464299710310343e+01,7.344847915143350292e+01,1.193106637121542093e+02
8.808593749999998890e-02,1.403527673467820414e+01,2.533856679057291217e+01,4.322980285179871629e+01,7.179531155342540671e+01,1.172612734793726048e+02
8.906249999999998890e-02,1.347557359262071408e+01,2.448796434884526008e+01,4.202676564376168500e+01,7.019097745694926971e+01,1.152661745669854128e+02
9.003906249999998890e-02,1.294029641801649078e+01,2.366976829085446354e+01,4.086385795298888723e+01,6.863366341492717027e+01,1.133234632066749867e+02
9.101562499999998890e-02,1.242826935407896016e+01,2.288256984387303206e+01,3.973948471528941440e+01,6.712163683543070647e+01,1.114313172069824418e+02
9.199218750000000278e-02,1.193837916549594169e+01,2.212502985451960313e+01,3.865212503399090593e+01,6.565324182086872895e+01,1.095879918965104167e+02
9.296874999999998890e-02,1.146957155931056960e+01,2.139587492129050261e+01,3.760032824087363679e+01,6.422689524620879808e+01,1.077918162921951364e+02
9.394531249999998890e-02,1.102084774239863130e+01,2.069389376482083165e+01,3.658271019023116821e+01,6.284108306136859312e+01,1.060411894792199661e+02
9.492187499999998890e-02,1.059126119908227537e+01,2.001793381999805277e+01,3.559794977105560321e+01,6.149435680388044290e+01,1.043345771899668932e+02
9.589843749999998890e-02,1.017991467364040403e+01,1.936689803517944952e+01,3.464478562336739031e+01,6.018533030883516943e+01,1.026705085701778017e+02
9.687500000000000278e-02,9.785957343602033731e+00,1.873974186481006754e+01,3.372201304566068814e+01,5.891267660395693895e+01,1.010475731212266908e+02
9.785156250000000278e-02,9.408582170747889606e+00,1.813547044270658404e+01,3.282848108132024123e+01,5.767512497845092412e+01,9.946441780809098532e+01
9.882812499999998890e-02,9.047023417703409010e+00,1.755313592416862534e+01,3.196308977268772011e+01,5.647145821500247109e+01,9.791974432325316968e+01
9.980468749999998890e-02,8.700554318891454031e+00,1.699183498591077424e+01,3.112478757222111980e+01,5.530050997499655807e+01,9.641230649737036629e+01
1.007812499999999889e-01,8.368484895428982995e+00,1.645070647357731275e+01,3.031256890090151046e+01,5.416116232766844973e+01,9.494090784811514538e+01
1.017578125000000028e-01,8.050159904305859371e+00,1.592892918731547347e+01,2.952547184470256170e+01,5.305234341449758517e+01,9.350439925912441197e+01
1.027343750000000028e-01,7.744956912880368805e+00,1.542571979654350756e+01,2.876257598055411790e+01,5.197302524071736229e+01,9.210167678149188930e+01
1.037109374999999889e-01,7.452284490368497494e+00,1.494033087566214668e+01,2.802300032380120243e+01,5.092222158633457241e+01,9.073167955070536550e+01
1.046874999999999889e-01,7.171580508598855985e+00,1.447204905302628219e+01,2.730590138969337843e+01,4.989898602954330187e+01,8.939338781237124465e+01
1.056640624999999889e-01,6.902310544853747842e+00,1.402019326601945437e+01,2.661047136193228013e+01,4.890241007587015787e+01,8.808582105047497635e+01
1.066406249999999889e-01,6.643966380124821214e+00,1.358411311556219836e+01,2.593593636176586514e+01,4.793162138681468321e+01,8.680803621231353873e+01
1.076171875000000028e-01,6.396064586581334588e+00,1.316318731383814011e+01,2.528155481154570694e+01,4.698578210214435558e+01,8.555912602459346772e+01
1.085937499999999889e-01,6.158145198483288674e+00,1.275682221944168226e+01,2.464661588706159634e+01,4.606408725037385921e+01,8.433821739552627150e+01
1.095703124999999889e-01,5.929770461173752949e+00,1.236445045454104807e+01,2.403043805333807015e+01,4.516576324230302930e+01,8.314446989806684485e+01
1.105468749999999889e-01,5.710523653156782231e+00,1.198552959901259740e+01,2.343236767892274131e+01,4.429006644281090388e+01,8.197707432973693642e+01
1.115234374999999889e-01,5.500007976611938076e+00,1.161954095683817201e+01,2.285177772401698348e+01,4.343628181640359287e+01,8.083525134475175378e+01
1.125000000000000028e-01,5.297845512015562086e+00,1.126598839036958211e+01,2.228806649809838092e+01,4.260372164229448089e+01,7.971825015442584572e+01
1.134765625000000028e-01,5.103676232834773785e+00,1.092439721835437005e+01,2.174065648296329556e+01,4.179172429505806008e+01,7.862534729207770567e+01
1.144531249999999889e-01,4.917157076534390825e+00,1.059431317388664517e+01,2.120899321737678989e+01,4.099965308714297407e+01,7.755584543887869131e+01
1.154296874999999889e-01,4.737961068391107311e+00,1.027530141869722335e+01,2.069254423975911550e+01,4.022689516975901824e+01,7.650907230730457798e+01
1.164062499999999889e-01,4.565776494845298572e+00,9.966945610430714808e+00,2.019079808556351452e+01,3.947286048886679310e+01,7.548437957904727114e+01
1.173828124999999889e-01,4.400306123339500886e+00,9.668847019773773255e+00,1.970326333620970161e+01,3.873698079319780874e+01,7.448114189443028010e+01
1.183593750000000028e-01,4.241266465795890284e+00,9.380623694500616949e+00,1.922946771663394117e+01,3.801870869142024389e+01,7.349875589054640557e+01
1.193359374999999889e-01,4.088387083073786954e+00,9.101909667689858097e+00,1.876895723869891697e+01,3.731751675573977423e+01,7.253663928549968887e+01
1.203124999999999889e-01,3.941409927923350320e+00,8.832354207541477820e+00,1.832129538787762257e+01,3.663289666938831601e+01,7.159423000628747502e+01
1.212890624999999889e-01,3.800088724114670136e+00,8.571621106385773459e+00,1.788606235078438189e+01,3.596435841560585800e+01,7.067098535800120374e+01
1.222656249999999889e-01,3.664188379572733911e+00,8.319388006628008370e+00,1.746285428127524142e+01,3.531142950586417584e+01,6.976638123216096687e+01
1.232421875000000028e-01,3.533484431489665401e+00,8.075345761513926135e+00,1.705128260297831488e+01,3.467365424521403838e+01,6.887991135212352845e+01
1.242187499999999889e-01,3.407762521516574328e+00,7.839197828733306395e+00,1.665097334624498160e+01,3.405059303276339477e+01,6.801108655362358490e+01
1.251953124999999889e-01,3.286817899259246722e+00,7.610659695001866787e+00,1.626156651763368188e+01,3.344182169541070948e+01,6.715943409861817770e+01
1.261718749999999889e-01,3.170454952415550753e+00,7.389458329876625875e+00,1.588271550015178590e+01,3.284693085306804505e+01,6.632449702070965714e+01
1.271484374999999889e-01,3.058486761997890380e+00,7.175331667167048622e+00,1.551408648258670375e+01,3.226552531371039834e+01,6.550583350051942944e+01
1.281249999999999889e-01,2.950734681182755281e+00,6.968028112404479835e+00,1.515535791635683793e+01,3.169722349668513317e+01,6.470301626947758677e+01
1.291015624999999889e-01,2.847027936421056449e+00,6.767306074925752313e+00,1.480621999840582070e+01,3.114165688280509414e+01,6.391563204057985104e+01
